# 1:M2 2:Local energy gain 3:Global energy gain 4:Eff. with global energy, Eff. with local energy
0.5000000000000000    0.0249494880213033    0.0249484874839155    0.1057279994029897    0.1057236710602922
0.4918333333333333    0.0234889631386196    0.0234879842064170    0.0992843830734744    0.0992801645590012
0.4836666666666667    0.0221019347038569    0.0221009643970961    0.0931734053105173    0.0931692397930525
0.4755000000000000    0.0207853977048818    0.0207844298199885    0.0873822788759980    0.0873781392116006
0.4673333333333333    0.0195361719974417    0.0195352166882861    0.0818972507631496    0.0818931800493040
0.4591666666666667    0.0183509946626296    0.0183500596884689    0.0767040475137971    0.0767000793118194
0.4510000000000000    0.0172266230839793    0.0172256958501391    0.0717883564856816    0.0717844361249400
0.4428333333333333    0.0161598674226993    0.0161589284261757    0.0671359909194516    0.0671320359276208
0.4346666666666667    0.0151476328337590    0.0151467204045404    0.0627330951937868    0.0627292676475204
0.4265000000000000    0.0141869472879349    0.0141860254094826    0.0585662981916491    0.0585624459343917
0.4183333333333333    0.0132749580790407    0.0132740643685563    0.0546226958003100    0.0546189769919088
0.4101666666666667    0.0124089684340144    0.0124080819883091    0.0508900398805121    0.0508863658191495
0.4020000000000000    0.0115863925253616    0.0115854815082630    0.0473565451381349    0.0473527859964489
0.3938333333333333    0.0108048425061587    0.0108039738336249    0.0440112656406156    0.0440076947130960
0.3856666666666667    0.0100620005585087    0.0100611349392909    0.0408435751372099    0.0408400307309645
0.3775000000000000    0.0093556983742596    0.0093548024999665    0.0378434941419503    0.0378398419263956
0.3693333333333333    0.0086839318106435    0.0086830645262551    0.0350017542870413    0.0349982335487383
0.3611666666666667    0.0080447912573058    0.0080439545131797    0.0323095198894359    0.0323061364455137
0.3530000000000000    0.0074364668597806    0.0074356356564720    0.0297584050080275    0.0297550574792819
0.3448333333333333    0.0068572825992125    0.0068564496344701    0.0273406142546605    0.0273372727285525
0.3366666666666667    0.0063056346322615    0.0063048062709009    0.0250486925246336    0.0250453834342553
0.3285000000000000    0.0057800370465509    0.0057792182344704    0.0228757111461859    0.0228724543421348
0.3203333333333333    0.0052790974258438    0.0052782903078342    0.0208151659393372    0.0208119692671351
0.3121666666666667    0.0048014984839321    0.0048007047808600    0.0188609020428489    0.0188577716069671
0.3040000000000000    0.0043459981428847    0.0043452165578521    0.0170071133489355    0.0170040435082407
0.2958333333333333    0.0039114295294086    0.0039106550209579    0.0152483406508239    0.0152453112778664
0.2876666666666667    0.0034966907846495    0.0034959031821868    0.0135794295114136    0.0135763619409298
0.2795000000000000    0.0031007432858499    0.0030999125327507    0.0119955211883524    0.0119922993721951
0.2713333333333333    0.0027226547294496    0.0027218578564676    0.0104922161543882    0.0104891380753598
0.2631666666666667    0.0023614708719231    0.0023607089464517    0.0090650756498161    0.0090621444579962
0.2550000000000000    0.0020162898542678    0.0020154846684500    0.0077099093782754    0.0077068253298690
0.2468333333333333    0.0016863576146121    0.0016856014128249    0.0064231371738782    0.0064202529235925
0.2386666666666667    0.0013708826878646    0.0013701465218781    0.0052010760385117    0.0051982799343981
0.2305000000000000    0.0010691342357877    0.0010683626006248    0.0040403139817107    0.0040373953866116
0.2223333333333333    0.0007804482144432    0.0007796983038540    0.0029377298891347    0.0029349051374711
0.2141666666666667    0.0005041092640902    0.0005033890134995    0.0018900467345213    0.0018873452089748
0.2060000000000000    0.0002395481896703    0.0002387714700964    0.0008945744018792    0.0008916732750451
0.1978333333333333    -0.0000137586749084    -0.0000144692018482    -0.0000511766421735    -0.0000538194767027
0.1896666666666667    -0.0002564937988461    -0.0002571817465231    -0.0009502540575563    -0.0009528022267032
0.1815000000000000    -0.0004890762369610    -0.0004898450069679    -0.0018046940919373    -0.0018075296956228
0.1733333333333333    -0.0007120687714408    -0.0007128235217612    -0.0026170360772056    -0.0026198085567116
0.1651666666666667    -0.0009258361754705    -0.0009265881059106    -0.0033890626967943    -0.0033918130244451
0.1570000000000000    -0.0011309453234765    -0.0011316459599215    -0.0041232697032235    -0.0041258219643648
0.1488333333333333    -0.0013277123964415    -0.0013284336650489    -0.0048212113971680    -0.0048238275263788
0.1406666666666667    -0.0015166327977892    -0.0015173524574071    -0.0054850680268909    -0.0054876677334127
0.1325000000000000    -0.0016980350918324    -0.0016987628826646    -0.0061163912944576    -0.0061190097347782
0.1243333333333333    -0.0018722302860111    -0.0018729482873844    -0.0067166497612361    -0.0067192217166714
0.1161666666666667    -0.0020396107336034    -0.0020402553823813    -0.0072875816435869    -0.0072898806496038
0.1080000000000000    -0.0022005537884491    -0.0022011891837035    -0.0078308485300526    -0.0078331055206813
0.0998333333333333    -0.0023553349644770    -0.0023560399660373    -0.0083477291564438    -0.0083502237955102
0.0916666666666667    -0.0025041495657299    -0.0025047299642693    -0.0088392012922310    -0.0088412458957580
0.0835000000000000    -0.0026474276120743    -0.0026481166804389    -0.0093070549145961    -0.0093094730977085
0.0753333333333333    -0.0027852812760574    -0.0027858443596885    -0.0097519412132181    -0.0097539083343492
0.0671666666666667    -0.0029181091905917    -0.0029187683694363    -0.0101755026387078    -0.0101777966685573
0.0590000000000000    -0.0030460317697790    -0.0030466758360155    -0.0105783915083124    -0.0105806232612950
0.0508333333333333    -0.0031692923796121    -0.0031698712422432    -0.0109616769721321    -0.0109636731979221
0.0426666666666667    -0.0032881861581343    -0.0032887550602407    -0.0113265899577818    -0.0113285436621089
0.0345000000000000    -0.0034029062138207    -0.0034034602094244    -0.0116739942752925    -0.0116758899685278
0.0263333333333333    -0.0035135511509542    -0.0035141247908844    -0.0120044222560178    -0.0120063763519863
0.0181666666666667    -0.0036203803070007    -0.0036209233890799    -0.0123189398266362    -0.0123207820131594
